0.172
0.811
0.817
0.786
0.792
0.789
0.817
0.653
0.994
0.842
0.814
0.792
0.769
0.839
0.853
0.822
0.831
0.822
0.794
0.792
0.797
0.822
0.867
0.825
0.786
0.786
0.781
0.786
0.808
0.819
0.828
0.844
0.806
0.775
0.800
0.786
0.858
0.844
0.825
0.803
0.833
0.794
0.783
0.822
0.847
0.875
0.828
0.778
0.800
0.814
0.797
0.836
0.828
0.828
0.811
0.786
0.783
0.808
0.842
0.833
0.825
0.811
0.772
0.800
0.778
0.797
0.853
0.844
0.828
0.786
0.783
0.786
0.817
0.811
0.850
0.833
0.811
0.783
0.772
0.786
0.803
0.842
0.822
0.814
0.778
0.797
0.792
0.800
0.817
0.856
0.831
0.789
0.783
0.792
0.831
0.822
0.828
0.833
0.822
0.797
0.781
0.792
0.814
0.861
0.847
0.811
0.794
0.786
0.794
0.811
0.825
0.844
0.856
0.808
0.772
0.794
0.800
0.819
0.836
0.822
0.828
0.797
0.781
0.778
0.811
0.822
0.864
0.833
0.792
0.783
0.803
0.792
0.814
0.836
0.836
0.819
0.775
0.753
0.794
0.819
0.814
0.831
0.828
0.783
0.742
0.831
0.781
0.833
0.864
0.822
0.803
0.778
0.786
0.800
0.794
0.814
0.847
0.828
0.772
0.764
0.783
0.769
0.825
0.819
0.803
0.789
0.786
0.781
0.761
0.786
0.817
0.847
0.808
0.772
0.778
0.792
0.783
0.800
0.819
0.817
0.808
0.772
0.775
0.772
0.806
0.808
0.825
0.800
0.769
0.778
0.778
0.775
0.789
0.828
0.822
0.783
0.756
0.772
0.781
0.792
0.811
0.828
0.828
0.806
0.769
0.769
0.800
0.814
0.836
0.844
0.800
0.794
0.800
0.786
0.792
0.831
0.847
0.836
0.797
0.756
0.797
0.806
0.811
0.822
0.828
0.806
0.794
0.772
0.775
0.825
0.519
0.942
0.839
0.819
0.778
0.819
0.808
0.814
0.844
0.869
0.814
0.769
0.789
0.794
0.828
0.828
0.833
0.850
0.814
0.775
0.794
0.819
0.842
0.861
0.831
0.794
0.797
0.789
0.608
0.961
0.833
0.836
0.833
0.783
0.753
0.800
0.808
0.831
0.806
0.825
0.800
0.792
0.767
0.794
0.839
0.842
0.831
0.814
0.794
0.783
0.797
0.811
0.833
0.844
0.839
0.806
0.786
0.786
0.839
0.858
0.844
0.836
0.839
0.808
0.775
0.806
0.836
0.853
0.839
0.828
0.794
0.800
0.803
0.808
0.828
0.842
0.833
0.800
0.786
0.786
0.831
0.842
0.819
0.847
0.806
0.783
0.792
0.808
0.819
0.867
0.839
0.800
0.803
0.778
0.806
0.831
0.842
0.842
0.856
0.797
0.772
0.775
0.817
0.850
0.828
0.822
0.808
0.814
0.778
0.781
0.817
0.831
0.547
0.975
0.797
0.775
0.792
0.803
0.803
0.817
0.800
0.814
0.786
0.764
0.783
0.822
0.831
0.817
0.828
0.786
0.794
0.800
0.800
0.836
0.853
0.831
0.794
0.786
0.769
0.811
0.825
0.825
0.825
0.836
0.786
0.758
0.794
0.797
0.844
0.828
0.831
0.806
0.781
0.778
0.794
0.825
0.825
0.850
0.806
0.781
0.775
0.803
0.811
0.797
0.797
0.786
0.783
0.742
0.744
0.747
0.792
0.792
0.783
0.769
0.781
0.756
0.772
0.775
0.789
0.844
0.844
0.819
0.781
0.794
0.831
0.833
0.869
0.856
0.853
0.792
0.781
0.803
0.808
0.833
0.861
0.844
0.756
0.789
0.797
0.747
0.786
0.819
0.817
0.772
0.769
0.758
0.753
0.772
0.800
0.806
0.800
0.533
0.942
0.764
0.725
0.750
0.808
0.775
0.717
0.728
0.694
0.692
0.711
0.703
0.717
0.731
0.761
0.719
0.692
0.706
0.692
0.714
0.758
0.753
0.733
0.742
0.758
0.703
0.706
0.722
0.767
0.781
0.803
0.775
0.753
0.753
0.772
0.775
0.778
0.822
0.814
0.808
0.767
0.767
0.775
0.808
0.806
0.831
0.783
0.753
0.753
0.719
0.725
0.733
0.756
0.742
0.731
0.711
0.694
0.697
0.719
0.725
0.753
0.761
0.778
0.753
0.736
0.711
0.742
0.764
0.808
0.769
0.769
0.764
0.744
0.736
0.731
0.767
0.775
0.797
0.792
0.781
0.725
0.756
0.758
0.761
0.758
0.792
0.808
0.767
0.731
0.758
0.753
0.794
0.819
0.783
0.772
0.753
0.769
0.753
0.744
0.781
0.825
0.769
0.744
0.731
0.703
0.717
0.728
0.725
0.739
0.736
0.753
0.711
0.675
0.675
0.697
0.708
0.717
0.733
0.717
0.689
0.686
0.697
0.689
0.678
0.742
0.753
0.758
0.736
0.731
0.714
0.747
0.742
0.750
0.783
0.778
0.750
0.725
0.703
0.703
0.717
0.761
0.750
0.750
0.756
0.747
0.722
0.750
0.753
0.772
0.817
0.831
0.808
0.767
0.772
0.769
0.822
0.808
0.631
0.986
0.822
0.778
0.753
0.772
0.781
0.822
0.808
0.786
0.772
0.775
0.747
0.764
0.794
0.794
0.831
0.794
0.747
0.744
0.783
0.750
0.769
0.761
0.764
0.756
0.731
0.717
0.725
0.733
0.767
0.750
0.761
0.739
0.711
0.722
0.728
0.719
0.756
0.797
0.800
0.761
0.742
0.756
0.753
0.794
0.817
0.839
0.811
0.811
0.803
0.789
0.775
0.822
0.886
0.858
0.808
0.803
0.794
0.800
0.789
0.825
0.850
0.839
0.786
0.778
0.797
0.817
0.847
0.831
0.836
0.808
0.811
0.783
0.775
0.842
0.847
0.817
0.797
0.789
0.769
0.778
0.808
0.797
0.814
0.814
0.800
0.750
0.767
0.769
0.806
0.811
0.794
0.792
0.786
0.753
0.733
0.761
0.781
0.797
0.789
0.772
0.739
0.764
0.733
0.761
0.775
0.778
0.778
0.761
0.725
0.725
0.756
0.758
0.789
0.794
0.794
0.758
0.778
0.775
0.756
0.783
0.844
0.833
0.775
0.775
0.758
0.772
0.767
0.797
0.808
0.836
0.783
0.761
0.750
0.761
0.772
0.814
0.806
0.806
0.783
0.772
0.767
0.764
0.781
0.803
0.825
0.769
0.761
0.767
0.778
0.744
0.778
0.800
0.797
0.789
0.758
0.742
0.761
0.789
0.797
0.806
0.808
0.775
0.778
0.775
0.772
0.767
0.831
0.811
0.800
0.753
0.761
0.778
0.794
0.792
0.814
0.831
0.797
0.767
0.761
0.769
0.769
0.817
0.808
0.789
0.769
0.778
0.769
0.731
0.775
0.819
0.817
0.778
0.769
0.750
0.783
0.756
0.764
0.808
0.781
0.783
0.769
0.758
0.731
0.772
0.808
0.797
0.783
0.789
0.767
0.772
0.753
0.767
0.825
0.822
0.789
0.767
0.767
0.747
0.756
0.789
0.797
0.794
0.797
0.767
0.733
0.747
0.764
0.806
0.825
0.783
0.778
0.783
0.756
0.733
0.775
0.806
0.800
0.794
0.764
0.736
0.764
0.756
0.769
0.789
0.772
0.747
0.769
0.739
0.717
0.706
0.744
0.744
0.719
0.719
0.719
0.686
0.703
0.708
0.711
0.736
0.781
0.756
0.744
0.711
0.722
0.750
0.764
0.764
0.797
0.819
0.800
0.736
0.744
0.761
0.764
0.783
0.797
0.811
0.772
0.769
0.758
0.783
0.789
0.792
0.836
0.839
0.781
0.742
0.794
0.808
0.825
0.792
0.811
0.822
0.794
0.747
0.756
0.839
0.847
0.778
0.789
0.792
0.803
0.744
0.769
0.794
0.825
0.789
0.753
0.711
0.722
0.697
0.722
0.739
0.769
0.725
0.753
0.733
0.717
0.697
0.739
0.781
0.792
0.758
0.769
0.761
0.764
0.756
0.758
0.800
0.811
0.806
0.794
0.783
0.756
0.806
0.814
0.819
0.825
0.811
0.808
0.794
0.786
0.769
0.844
0.831
0.781
0.792
0.775
0.775
0.781
0.794
0.803
0.828
0.817
0.753
0.761
0.764
0.794
0.819
0.811
0.806
0.847
0.792
0.753
0.781
0.811
0.825
0.822
0.811
0.772
0.758
0.744
0.772
0.794
0.781
0.794
0.833
0.792
0.728
0.758
0.803
0.853
0.819
0.789
0.792
0.536
0.950
0.806
0.842
0.844
0.819
0.811
0.781
0.756
0.767
0.786
0.800
0.819
0.814
0.783
0.756
0.758
0.756
0.800
0.822
0.806
0.806
0.789
0.761
0.764
0.769
0.803
0.831
0.842
0.808
0.781
0.781
0.792
0.792
0.822
0.817
0.844
0.797
0.781
0.764
0.817
0.822
0.811
0.817
0.811
0.792
0.772
0.775
0.800
0.833
0.831
0.792
0.794
0.764
0.792
0.778
0.822
0.822
0.850
0.811
0.772
0.778
0.775
0.806
0.817
0.839
0.814
0.811
0.797
0.769
0.758
0.819
0.856
0.842
0.769
0.753
0.789
0.797
0.778
0.792
0.828
0.839
0.817
0.728
0.750
0.811
0.819
0.775
0.792
0.797
0.797
0.586
0.908
0.839
0.842
0.833
0.817
0.775
0.644
0.881
0.797
0.764
0.797
0.847
0.825
0.742
0.756
0.781
0.806
0.806
0.792
0.800
0.822
0.778
0.739
0.769
0.606
1.019
0.881
0.833
0.783
0.786
0.811
0.800
0.814
0.822
0.836
0.814
0.778
0.772
0.789
0.800
0.819
0.622
1.003
0.811
0.811
0.783
0.589
1.008
0.881
0.839
0.800
0.814
0.794
0.831
0.811
0.844
0.853
0.831
0.789
0.775
0.803
0.844
0.875
0.819
0.836
0.803
0.794
0.775
0.800
0.847
0.850
0.847
0.800
0.806
0.803
0.808
0.814
0.839
0.839
0.839
0.789
0.778
0.814
0.844
0.856
0.819
0.844
0.800
0.811
0.792
0.806
0.861
0.858
0.839
0.778
0.800
0.803
0.808
0.822
0.833
0.847
0.819
0.778
0.769
0.792
0.817
0.833
0.833
0.811
0.806
0.786
0.797
0.797
0.853
0.836
0.847
0.817
0.775
0.792
0.806
0.819
0.844
0.842
0.814
0.811
0.778
0.767
0.806
0.819
0.828
0.803
0.789
0.772
0.792
0.800
0.794
0.853
0.817
0.811
0.800
0.578
0.950
0.856
0.847
0.842
0.842
0.811
0.769
0.794
0.778
0.842
0.858
0.828
0.783
0.797
0.794
0.600
0.942
0.817
0.836
0.822
0.767
0.750
0.800
0.794
0.822
0.831
0.808
0.828
0.797
0.769
0.772
0.853
0.828
0.819
0.800
0.781
0.789
0.806
0.792
0.817
0.856
0.831
0.775
0.747
0.747
0.775
0.803
0.811
0.800
0.806
0.786
0.750
0.744
0.800
0.781
0.819
0.811
0.800
0.756
0.778
0.803
0.783
0.814
0.853
0.861
0.758
0.772
0.803
0.828
0.794
0.833
0.864
0.792
0.800
0.789
0.814
0.789
0.836
0.847
0.817
0.753
0.772
0.792
0.803
0.758
0.831
0.842
0.811
0.719
0.767
0.806
0.844
0.786
0.803
0.842
0.811
0.719
0.753
0.800
0.842
0.783
0.806
0.803
0.789
0.611
0.900
0.819
0.847
0.844
0.831
0.769
0.764
0.778
0.806
0.814
0.806
0.828
0.800
0.761
0.778
0.750
0.800
0.828
0.828
0.803
0.800
0.758
0.797
0.789
0.803
0.828
0.836
0.806
0.781
0.786
0.781
0.828
0.833
0.811
0.831
0.817
0.772
0.761
0.797
0.828
0.856
0.828
0.797
0.822
0.806
0.792
0.822
0.858
0.842
0.831
0.783
0.778
0.806
0.797
0.822
0.836
0.822
0.789
0.794
0.767
0.781
0.819
0.844
0.828
0.808
0.778
0.789
0.814
0.800
0.561
1.022
0.844
0.797
0.764
0.783
0.800
0.819
0.817
0.817
0.822
0.781
0.772
0.794
0.803
0.842
0.847
0.833
0.792
0.800
0.783
0.814
0.819
0.825
0.842
0.814
0.789
0.761
0.800
0.814
0.819
0.817
0.806
0.808
0.778
0.764
0.800
0.839
0.836
0.817
0.789
0.792
0.786
0.786
0.822
0.833
0.844
0.808
0.778
0.781
0.786
0.806
0.847
0.847
0.814
0.817
0.806
0.767
0.781
0.803
0.858
0.822
0.794
0.761
0.808
0.775
0.783
0.814
0.839
0.817
0.792
0.769
0.767
0.814
0.806
0.803
0.831
0.808
0.769
0.778
0.783
0.803
0.833
0.836
0.806
0.642
0.906
0.786
0.597
0.961
0.825
0.847
0.825
0.767
0.769
0.769
0.817
0.836
0.836
0.800
0.842
0.781
0.769
0.794
0.828
0.847
0.839
0.789
0.792
0.814
0.786
0.789
0.856
0.831
0.847
0.789
0.775
0.783
0.833
0.819
0.825
0.836
0.806
0.786
0.786
0.789
0.536
1.025
0.839
0.828
0.792
0.764
0.800
0.814
0.550
0.997
0.864
0.828
0.786
0.783
0.778
0.847
0.836
0.825
0.811
0.822
0.792
0.789
0.800
0.864
0.867
0.825
0.800
0.822
0.819
0.825
0.603
1.025
0.867
0.839
0.783
0.797
0.828
0.642
0.986
0.839
0.825
0.806
0.772
0.775
0.817
0.839
0.831
0.811
0.800
0.786
0.792
0.792
0.839
0.850
0.847
0.808
0.800
0.781
0.800
0.828
0.856
0.847
0.819
0.806
0.797
0.781
0.803
0.825
0.853
0.839
0.806
0.578
0.958
0.825
0.817
0.833
0.833
0.831
0.792
0.761
0.797
0.831
0.850
0.642
0.986
0.811
0.800
0.769
0.789
0.833
0.861
0.822
0.797
0.808
0.789
0.803
0.814
0.825
0.856
0.831
0.772
0.789
0.786
0.794
0.864
0.842
0.822
0.825
0.786
0.781
0.789
0.833
0.842
0.842
0.828
0.781
0.800
0.797
0.817
0.842
0.836
0.836
0.822
0.783
0.803
0.831
0.853
0.839
0.847
0.789
0.808
0.794
0.789
0.828
0.872
0.828
0.814
0.786
0.797
0.808
0.803
0.822
0.858
0.847
0.792
0.781
0.800
0.817
0.856
0.819
0.822
0.825
0.792
0.769
0.783
0.811
0.839
0.828
0.794
0.767
0.794
0.772
0.786
0.831
0.836
0.831
0.794
0.767
0.750
0.775
0.786
0.825
0.800
0.803
0.775
0.794
0.772
0.808
0.825
0.872
0.844
0.800
0.792
0.814
0.822
0.828
0.844
0.867
0.831
0.786
0.783
0.808
0.839
0.842
0.839
0.831
0.817
0.786
0.775
0.819
0.833
0.850
0.819
0.817
0.789
0.808
0.792
0.808
0.825
0.828
0.789
0.775
0.767
0.769
0.825
0.594
1.003
0.842
0.800
0.781
0.792
0.794
0.819
0.842
0.839
0.792
0.792
0.778
0.783
0.825
0.833
0.836
0.831
0.811
0.772
0.794
0.794
0.842
0.850
0.825
0.794
0.806
0.792
0.781
0.811
0.836
0.836
0.819
0.758
0.781
0.806
0.800
0.822
0.839
0.842
0.828
0.800
0.767
0.831
0.844
0.836
0.825
0.831
0.789
0.806
0.772
0.800
0.861
0.853
0.803
0.794
0.786
0.803
0.817
0.825
0.839
0.864
0.811
0.758
0.786
0.794
0.842
0.853
0.819
0.844
0.822
0.797
0.775
0.811
0.839
0.853
0.817
0.778
0.794
0.803
0.742
0.869
0.850
0.592
1.000
0.797
0.789
0.822
0.842
0.839
0.839
0.836
0.806
0.811
0.781
0.825
0.869
0.856
0.819
0.800
0.786
0.811
0.806
0.819
0.842
0.847
0.806
0.778
0.789
0.797
0.839
0.836
0.850
0.828
0.819
0.778
0.803
0.822
0.836
0.861
0.833
0.806
0.797
0.786
0.817
0.817
0.839
0.814
0.825
0.783
0.783
0.803
0.828
0.858
0.831
0.828
0.778
0.794
0.781
0.817
0.839
0.847
0.858
0.794
0.794
0.792
0.819
0.828
0.836
0.831
0.825
0.789
0.781
0.786
0.828
0.864
0.844
0.822
0.806
0.811
0.781
0.817
0.842
0.844
0.850
0.797
0.758
0.794
0.781
0.789
0.811
0.525
0.317
0.828
0.781
0.772
0.761
0.833
0.833
0.814
0.808
0.792
0.786
0.792
0.775
0.800
0.875
0.833
0.781
0.781
0.786
0.803
0.817
0.819
0.853
0.853
0.800
0.769
0.792
0.792
0.842
0.822
0.808
0.833
0.803
0.789
0.775
0.806
0.847
0.853
0.817
0.769
0.794
0.803
0.800
0.817
0.833
0.839
0.822
0.783
0.753
0.819
0.814
0.822
0.803
0.803
0.786
0.614
0.908
0.786
0.856
0.831
0.808
0.778
0.783
0.781
0.803
0.800
0.833
0.608
0.989
0.789
0.792
0.539
0.950
0.847
0.833
0.828
0.817
0.797
0.769
0.778
0.825
0.853
0.839
0.806
0.803
0.808
0.814
0.811
0.847
0.842
0.858
0.800
0.781
0.789
0.833
0.656
0.992
0.858
0.811
0.811
0.778
0.806
0.839
0.867
0.833
0.814
0.792
0.789
0.792
0.800
0.842
0.842
0.678
0.953
0.783
0.792
0.806
0.831
0.831
0.825
0.808
0.794
0.767
0.758
0.697
0.886
0.833
0.786
0.767
0.742
0.753
0.744
0.756
0.775
0.767
0.781
0.736
0.692
0.683
0.719
0.744
0.758
0.753
0.747
0.739
0.736
0.733
0.747
0.775
0.811
0.814
0.769
0.756
0.764
0.781
0.756
0.806
0.808
0.806
0.789
0.781
0.600
0.886
0.817
0.858
0.800
0.792
0.808
0.756
0.767
0.797
0.842
0.794
0.847
0.819
0.717
0.739
0.744
0.708
0.722
0.756
0.708
0.714
0.703
0.683
0.653
0.692
0.728
0.747
0.708
0.756
0.728
0.736
0.725
0.739
0.739
0.769
0.794
0.794
0.767
0.736
0.747
0.797
0.797
0.775
0.850
0.858
0.778
0.753
0.792
0.808
0.819
0.825
0.828
0.803
0.778
0.739
0.742
0.764
0.789
0.806
0.806
0.756
0.761
0.783
0.775
0.789
0.814
0.822
0.808
0.769
0.767
0.778
0.800
0.811
0.814
0.806
0.769
0.778
0.767
0.761
0.781
0.847
0.811
0.786
0.764
0.772
0.781
0.783
0.800
0.819
0.828
0.781
0.767
0.769
0.781
0.803
0.833
0.822
0.814
0.792
0.769
0.769
0.781
0.786
0.842
0.819
0.783
0.736
0.775
0.753
0.775
0.756
0.814
0.783
0.783
0.731
0.750
0.756
0.797
0.803
0.794
0.794
0.781
0.764
0.756
0.767
0.797
0.828
0.811
0.528
0.894
0.747
0.736
0.731
0.753
0.761
0.764
0.744
0.719
0.725
0.717
0.717
0.761
0.753
0.750
0.744
0.753
0.725
0.711
0.725
0.781
0.778
0.800
0.806
0.783
0.753
0.783
0.811
0.811
0.822
0.847
0.814
0.792
0.772
0.794
0.817
0.850
0.828
0.822
0.797
0.800
0.789
0.772
0.833
0.833
0.800
0.756
0.769
0.756
0.772
0.758
0.786
0.789
0.786
0.719
0.725
0.711
0.717
0.722
0.783
0.747
0.722
0.736
0.714
0.706
0.683
0.717
0.728
0.747
0.753
0.719
0.681
0.706
0.700
0.694
0.711
